time,x,y,yaw,v,omega
1629116351.295511,0.0,0.0,0.8418690246481324,0.0,0.0012053383979946375
1629116351.3188665,0.0,0.0,0.8417646458426392,0.0,-0.0026091933250427246
1629116351.367753,0.00033721327781677246,0.000377655029296875,0.8417688358066203,0.01446324959397316,0.00012091227836208418
1629116351.3903532,0.002617074176669121,0.0029230117797851562,0.8388764846152248,0.0776577889919281,-0.06573579460382462
1629116351.438764,0.005567466840147972,0.0061931610107421875,0.8344985006369885,0.12233498692512512,-0.12161003053188324
1629116351.4986439,0.012071583420038223,0.01331329345703125,0.8266140531529577,0.16344697773456573,-0.13363462686538696
1629116351.5458474,0.01611093059182167,0.017679214477539062,0.8218834091150549,0.18024276196956635,-0.143354594707489
1629116351.592503,0.025551218539476395,0.02780628204345703,0.8191100479173722,0.19229091703891754,-0.03851867467164993
1629116351.6407576,0.030388809740543365,0.032985687255859375,0.819849388286629,0.1968608945608139,0.020537111908197403
1629116351.6923234,0.03897269442677498,0.04218101501464844,0.8197273803021368,0.20289373397827148,-0.0019669532775878906
1629116351.7403276,0.04358455911278725,0.04712104797363281,0.819686259614517,0.20478646457195282,-0.0012480851728469133
1629116351.7792099,0.04990121349692345,0.05389690399169922,0.8212716940260065,0.20586025714874268,0.03523164242506027
1629116351.8547125,0.05484214052557945,0.05922222137451172,0.824310754597661,0.20178242027759552,0.08442004770040512
1629116351.8975346,0.0683835856616497,0.0737619400024414,0.817551493528161,0.20483390986919403,-0.06968335807323456
1629116351.9442613,0.07296813651919365,0.0786581039428711,0.8189112152394814,0.20325247943401337,0.041204869747161865
1629116351.9874635,0.0778624601662159,0.08388805389404297,0.8181754899152129,0.2046549767255783,-0.021021706983447075
1629116352.0305917,0.08251376822590828,0.08886051177978516,0.8192715362865198,0.20025219023227692,0.03223734721541405
1629116352.0746777,0.08707611635327339,0.09374237060546875,0.8191989375336209,0.2088131606578827,-0.0022687017917633057
1629116352.074695,0.09259103611111641,0.099639892578125,0.8185674470616321,0.20702843368053436,-0.016192594543099403
1629116352.1186454,0.09724326804280281,0.10461139678955078,0.8185057959857069,0.20632044970989227,-0.0018676122417673469
1629116352.1599782,0.1021316684782505,0.1098470687866211,0.820845521593377,0.2046549767255783,0.06684745848178864
1629116352.204612,0.10729004815220833,0.11538505554199219,0.8208180640998255,0.20453770458698273,-0.0007410307298414409
1629116352.246641,0.11182734742760658,0.1202554702758789,0.8208442821997988,0.2017184942960739,0.0007947285776026547
1629116352.2466557,0.11716261878609657,0.12597370147705078,0.8192896520628795,0.2005385160446167,-0.03986175358295441
1629116352.2919543,0.12174386158585548,0.1308727264404297,0.8185215740037278,0.20325247943401337,-0.023274710401892662
1629116352.3333683,0.12662867084145546,0.13611125946044922,0.8222011612128798,0.2046549767255783,0.10512896627187729
1629116352.3787434,0.13151216879487038,0.1413860321044922,0.825575077123982,0.20537814497947693,0.09639944136142731
1629116352.4224193,0.1364455260336399,0.14675235748291016,0.8292657529504445,0.20827078819274902,0.1054457277059555
1629116352.466481,0.14476213231682777,0.15585041046142578,0.8312000914358538,0.20543840527534485,0.03224015235900879
1629116352.510562,0.14926903322339058,0.1607837677001953,0.8298658940231394,0.20248548686504364,-0.04043181613087654
1629116352.5546353,0.1539960689842701,0.16596126556396484,0.8318942575860586,0.19475166499614716,0.05634460225701332
1629116352.5546706,0.15890200808644295,0.17135238647460938,0.8331392855434617,0.20827078819274902,0.03557034954428673
1629116352.5986216,0.1636618711054325,0.1766033172607422,0.835627165844592,0.1968608945608139,0.06910993158817291
1629116352.6456182,0.1719771958887577,0.1858386993408203,0.8399592476381038,0.20712578296661377,0.07220109552145004
1629116352.6935194,0.1765214242041111,0.19090843200683594,0.8401334761123744,0.20632044970989227,0.0052795265801250935
1629116352.7386,0.18126368895173073,0.19620895385742188,0.8417297169372946,0.19756397604942322,0.04433923214673996
1629116352.7825866,0.18613849952816963,0.20166301727294922,0.841034865801516,0.20899395644664764,-0.01985175348818302
1629116352.828786,0.1905909664928913,0.20664501190185547,0.8419933029068737,0.1965300291776657,0.028187736868858337
1629116352.828805,0.1962341107428074,0.21293926239013672,0.8378268135883084,0.20618949830532074,-0.10162156075239182
1629116352.8704867,0.2006630040705204,0.21784114837646484,0.8341993195151775,0.20018452405929565,-0.10992360860109329
1629116352.908444,0.20512965694069862,0.2227764129638672,0.8362828317075859,0.2017184942960739,0.06313576549291611
1629116352.9510918,0.2101992554962635,0.2283954620361328,0.8372069381659014,0.21021930873394012,0.02567138895392418
1629116352.9944367,0.21497242525219917,0.2337026596069336,0.8393737880066834,0.19826704263687134,0.06019075587391853
1629116353.0388234,0.21955928578972816,0.23880290985107422,0.8372531426753014,0.20785441994667053,-0.06426283717155457
1629116353.0388346,0.2242489941418171,0.24401473999023438,0.8388800825168127,0.20620764791965485,0.04785025864839554
1629116353.0826063,0.22878441587090492,0.24905872344970703,0.8380140035896763,0.20555345714092255,-0.026244105771183968
1629116353.1107457,0.23592821136116982,0.2570333480834961,0.8425759875966079,0.20589269697666168,0.08773116022348404
1629116353.1589074,0.24025532975792885,0.2618904113769531,0.843453662423495,0.19711655378341675,0.026594508439302444
1629116353.2031019,0.24477172270417213,0.2669515609741211,0.8409688133398915,0.20555345714092255,-0.0752987265586853
1629116353.2472212,0.25015047565102577,0.27297306060791016,0.8424894497038696,0.2018527239561081,0.038017332553863525
1629116353.2904742,0.25469884648919106,0.2780733108520508,0.8426056645184505,0.207087442278862,0.0035202864091843367
1629116353.334726,0.25911015644669533,0.28302478790283203,0.8434191146821223,0.20095151662826538,0.02465103566646576
1629116353.3347404,0.2649189867079258,0.28954505920410156,0.8425943400794957,0.2079092115163803,-0.019636891782283783
1629116353.3785849,0.2694828547537327,0.2946653366088867,0.8430360467900575,0.20785441994667053,0.013383951969444752
1629116353.4130785,0.27387071028351784,0.2996034622192383,0.8456677381539671,0.20018452405929565,0.07974740117788315
1629116353.454878,0.27861881628632545,0.30496692657470703,0.8466227706478656,0.2106742411851883,0.02808956615626812
1629116353.4985845,0.28297844901680946,0.30989646911621094,0.846726910713388,0.19941753149032593,0.0031554338056594133
1629116353.5425823,0.28852519765496254,0.3161754608154297,0.8477001436800878,0.2043374925851822,0.023738639429211617
1629116353.5864859,0.293231014162302,0.32150840759277344,0.8478751986716339,0.19756397604942322,0.004861089866608381
1629116353.6313682,0.29772842302918434,0.32662010192871094,0.8506079951887059,0.20632044970989227,0.08281252533197403
1629116353.6313858,0.3029271103441715,0.3325643539428711,0.8538225128958784,0.2078140527009964,0.08459153771400452
1629116353.6744742,0.3076786436140537,0.3380250930786133,0.8557140660458749,0.2010793387889862,0.05254480615258217
1629116353.7021601,0.31208476796746254,0.34311580657958984,0.8589896918036867,0.2040194720029831,0.09926160424947739
1629116353.7466474,0.31667110696434975,0.3484525680541992,0.8626813124014231,0.2069520801305771,0.10857687145471573
1629116353.7909074,0.32104403153061867,0.35357189178466797,0.8650255717321172,0.2040194720029831,0.07103609293699265
1629116353.8362188,0.3280567564070225,0.36179542541503906,0.864378943539266,0.20014190673828125,-0.011973910965025425
1629116353.878592,0.33240828290581703,0.3668994903564453,0.8652777334667054,0.20325247943401337,0.027235710993409157
1629116353.9224255,0.3383764661848545,0.3739185333251953,0.8669441986586242,0.20473532378673553,0.03703302890062332
1629116353.9664543,0.34306279197335243,0.37943553924560547,0.866356951537888,0.2010793387889862,-0.016311803832650185
1629116354.0104747,0.3507300354540348,0.3885307312011719,0.8744425339400029,0.20510384440422058,0.13940703868865967
1629116354.0545108,0.3553445376455784,0.3940753936767578,0.8789315662286384,0.20037627220153809,0.1246945708990097
1629116354.0986302,0.3594610132277012,0.3990468978881836,0.8794002070176444,0.1955825835466385,0.014202161692082882
1629116354.0986493,0.36403170600533485,0.40459442138671875,0.8839536425912529,0.19967319071292877,0.12648271024227142
1629116354.1429822,0.36793727055191994,0.4093780517578125,0.8883445790418791,0.1871456801891327,0.13305924832820892
1629116354.1537583,0.37303293123841286,0.4157066345214844,0.8973938559094131,0.18894721567630768,0.21044737100601196
1629116354.2041957,0.37676582112908363,0.42043495178222656,0.9075381463176914,0.18254373967647552,0.3074028193950653
1629116354.2465546,0.38359806314110756,0.42935752868652344,0.9270696245593942,0.18422859907150269,0.32018834352493286
1629116354.2933333,0.3873559273779392,0.4344167709350586,0.9368475065337045,0.17506557703018188,0.2716084420681
1629116354.3396723,0.39094478264451027,0.4393491744995117,0.9467101444475176,0.1848447173833847,0.2988685369491577
1629116354.3825548,0.39460522308945656,0.44451045989990234,0.9611564119224669,0.18079061806201935,0.4127485454082489
1629116354.4272401,0.3979683257639408,0.4493856430053711,0.9726973737215419,0.1794757843017578,0.3497275412082672
1629116354.470548,0.4031227268278599,0.45708274841308594,0.9887796617534169,0.18164139986038208,0.31533896923065186
1629116354.5144289,0.40628859773278236,0.46193790435791016,0.9971688799429742,0.17564082145690918,0.2542192339897156
1629116354.5587733,0.40972334519028664,0.4673128128051758,1.0071033298418481,0.1822369396686554,0.28384071588516235
1629116354.5587864,0.41297722235322,0.4725322723388672,1.0195443534951167,0.17572848498821259,0.35545825958251953
1629116354.6023984,0.4160901643335819,0.4776601791381836,1.0308274233092205,0.18745727837085724,0.3525950014591217
1629116354.6085904,0.41981619969010353,0.48395442962646484,1.0418291237878674,0.18286970257759094,0.27504265308380127
1629116354.6569343,0.42288175597786903,0.4892568588256836,1.05145192492268,0.18561169505119324,0.29160037636756897
1629116354.7005548,0.4261917807161808,0.4950904846191406,1.0579402890051481,0.18631477653980255,0.18023450672626495
1629116354.7427053,0.4295341409742832,0.5010805130004883,1.0657084613384442,0.19053322076797485,0.2157820612192154
1629116354.7865186,0.4328928329050541,0.5071773529052734,1.0687771535240946,0.19334551692008972,0.08523795008659363
1629116354.831267,0.4366094507277012,0.5140008926391602,1.075370327599194,0.1992405354976654,0.16905711591243744
1629116354.8767302,0.4397074617445469,0.519749641418457,1.077624813062977,0.19788354635238647,0.06831776350736618
1629116354.9185882,0.4427899159491062,0.5255069732666016,1.080774006418072,0.19788354635238647,0.09543245285749435
1629116354.9186046,0.4460383392870426,0.5316057205200195,1.0819732565389526,0.20322991907596588,0.03527192398905754
1629116354.962659,0.44914502277970314,0.5374641418457031,1.0844742340820501,0.20095151662826538,0.0757845938205719
1629116354.9626698,0.45273664966225624,0.5442686080932617,1.0858182280420774,0.20248548686504364,0.035367514938116074
1629116355.0076048,0.45580047741532326,0.5500926971435547,1.0872149846151586,0.19941753149032593,0.04232652112841606
1629116355.0501206,0.45877406373620033,0.5557641983032227,1.0885481080077533,0.19404859840869904,0.04039749875664711
1629116355.0944529,0.4618688262999058,0.5616865158081055,1.0899542279581629,0.20248548686504364,0.042611900717020035
1629116355.1426034,0.46487313881516457,0.5674562454223633,1.0914602762021521,0.19711655378341675,0.04563548415899277
1629116355.1426158,0.4687362350523472,0.5749187469482422,1.094774446106263,0.2049548327922821,0.08083262294530869
1629116355.1874874,0.4717486836016178,0.5807695388793945,1.0958555887703672,0.19941753149032593,0.0327644944190979
1629116355.2257974,0.4772662855684757,0.5916223526000977,1.105011688466055,0.20290733873844147,0.15260179340839386
1629116355.2718792,0.480197761207819,0.5974855422973633,1.1093682354351944,0.1986505389213562,0.13201525807380676
1629116355.314691,0.48307940736413,0.6032886505126953,1.110487643022725,0.20248548686504364,0.034984201192855835
1629116355.3585138,0.4863280989229679,0.6098709106445312,1.1141265601766326,0.19838105142116547,0.09834766387939453
1629116355.4024692,0.4894622303545475,0.6162557601928711,1.114782517712495,0.19756397604942322,0.018219152465462685
1629116355.4466307,0.4923255778849125,0.6221246719360352,1.1190054659496196,0.2040674090385437,0.1319684088230133
1629116355.4466422,0.49542662873864174,0.6285257339477539,1.1202595085020641,0.20320865511894226,0.03583090752363205
1629116355.492305,0.4985661841928959,0.6350479125976562,1.1241193272431096,0.2010793387889862,0.10721882432699203
1629116355.5130522,0.5028929449617863,0.6440887451171875,1.1247640751304482,0.20046064257621765,0.0128936767578125
1629116355.5599298,0.5057434178888798,0.6500482559204102,1.124529039236844,0.20018452405929565,-0.007120045833289623
1629116355.603426,0.5085283853113651,0.6558990478515625,1.1284940910618788,0.19634956121444702,0.12014851719141006
1629116355.6464858,0.5119116045534611,0.6630620956420898,1.1306303106177362,0.2031344771385193,0.054775141179561615
1629116355.6906462,0.5148968435823917,0.6694059371948242,1.13129598980766,0.19475166499614716,0.018493996933102608
1629116355.734862,0.5177057720720768,0.6753854751586914,1.1319310675030558,0.2064402848482132,0.019844621419906616
1629116355.734873,0.5207361318171024,0.6818761825561523,1.1360219336018285,0.19897012412548065,0.11363625526428223
1629116355.7786205,0.5235553719103336,0.687962532043457,1.1379715447049408,0.20325247943401337,0.05907723307609558
1629116355.8110428,0.5276617147028446,0.6968555450439453,1.1384546739244772,0.2040674090385437,0.010065734386444092
1629116355.8599062,0.530545387417078,0.7031345367431641,1.1421330806685976,0.19742335379123688,0.10509831458330154
1629116355.9042242,0.5349505878984928,0.7128095626831055,1.1449068236840645,0.20057524740695953,0.05233287811279297
1629116355.9518726,0.5378622151911259,0.719243049621582,1.1467060190116072,0.2017623335123062,0.05140985921025276
1629116355.9955132,0.5411765910685062,0.7266054153442383,1.1488986173358122,0.19692948460578918,0.05347554385662079
1629116356.0384884,0.5438877679407597,0.7326574325561523,1.1503290404299946,0.20095151662826538,0.04334883391857147
1629116356.08371,0.5469451285898685,0.7395248413085938,1.1535683163352979,0.19782300293445587,0.08524405211210251
1629116356.126518,0.5498159267008305,0.7460317611694336,1.1570391065913026,0.20320865511894226,0.09916509687900543
1629116356.1265297,0.5527161099016666,0.7526645660400391,1.1601239841607989,0.2010793387889862,0.08569160848855972
1629116356.170918,0.5555560328066349,0.7592124938964844,1.1630510911205194,0.20393182337284088,0.08363042771816254
1629116356.185479,0.5585170723497868,0.7660942077636719,1.1658993345810298,0.20248548686504364,0.07697698473930359
1629116356.234391,0.5612780191004276,0.7725391387939453,1.1661713492203727,0.19475166499614716,0.007556544616818428
1629116356.282792,0.5638361312448978,0.7785472869873047,1.1703894911029364,0.19788354635238647,0.12782125174999237
1629116356.326659,0.5668300129473209,0.7856903076171875,1.177413758560578,0.20381763577461243,0.18485282361507416
1629116356.3704545,0.5695291496813297,0.7922430038452148,1.1827326415761206,0.1968608945608139,0.147743359208107
1629116356.4144375,0.5736077763140202,0.8022518157958984,1.1849199486982784,0.20391817390918732,0.0412711575627327
1629116356.4586532,0.576058778911829,0.8083047866821289,1.1871510253996431,0.19788354635238647,0.0676061138510704
1629116356.5037045,0.5784204937517643,0.8142023086547852,1.192649305881664,0.19251461327075958,0.1666184663772583
1629116356.503717,0.5810640193521976,0.8209142684936523,1.1985216533437613,0.20037627220153809,0.16312135756015778
1629116356.5466363,0.5833834744989872,0.8269100189208984,1.204860775726791,0.19481559097766876,0.1920931339263916
1629116356.5550258,0.5861404277384281,0.8341474533081055,1.2088402844836243,0.1936267465353012,0.09948611259460449
1629116356.6025736,0.5883640386164188,0.8400716781616211,1.214592403597743,0.19174762070178986,0.17430926859378815
1629116356.6507382,0.5905742384493351,0.8460273742675781,1.2163350728379603,0.19251461327075958,0.052806101739406586
1629116356.6952121,0.5932572223246098,0.8533735275268555,1.224934500540447,0.19552505016326904,0.21498501300811768
1629116356.738967,0.5954214073717594,0.8594274520874023,1.229974796683684,0.19481559097766876,0.15273599326610565
1629116356.7825868,0.5974870063364506,0.8653011322021484,1.2353126889689108,0.18867966532707214,0.16175617277622223
1629116356.7826042,0.5996445752680302,0.8715448379516602,1.2408679134506677,0.20018452405929565,0.16833797097206116
1629116356.826845,0.6016781069338322,0.8775367736816406,1.2463643118214511,0.19174762070178986,0.16655705869197845
1629116356.8377829,0.604438278824091,0.8858747482299805,1.2558567783612915,0.19517351686954498,0.21094481647014618
1629116356.8845832,0.6063765622675419,0.8918981552124023,1.263087522045026,0.19174762070178986,0.21911390125751495
1629116356.927201,0.6082643009722233,0.8978843688964844,1.267583009483004,0.1902136504650116,0.1362273246049881
1629116356.970545,0.6103204227983952,0.9044809341430664,1.2697349277122256,0.1919393688440323,0.0597735233604908
1629116357.0158029,0.6122135855257511,0.9106245040893555,1.2740456575911376,0.19481559097766876,0.1306317001581192
1629116357.058526,0.6140390373766422,0.916656494140625,1.2798351886699508,0.19098062813282013,0.1754399538040161
1629116357.058536,0.6160947419703007,0.9236240386962891,1.2879404715350626,0.19632883369922638,0.21906156837940216
1629116357.1024988,0.6178598143160343,0.9297800064086914,1.295139261118318,0.19404859840869904,0.21814577281475067
1629116357.1314585,0.6195860840380192,0.9359207153320312,1.2983260782572286,0.1932816058397293,0.09656675159931183
1629116357.1749525,0.6214880682528019,0.9427480697631836,1.299852341123908,0.1968608945608139,0.04239876940846443
1629116357.219986,0.623310599476099,0.9493341445922852,1.3018314125274624,0.18983015418052673,0.05497203767299652
1629116357.2626536,0.6249422170221806,0.9553165435791016,1.307264111646589,0.18791267275810242,0.1646280288696289
1629116357.2626638,0.6267660595476627,0.9621648788452148,1.31377508573436,0.1968608945608139,0.18086035549640656
1629116357.3068967,0.6284671761095524,0.9687051773071289,1.3189071359562377,0.18772092461585999,0.142557755112648
1629116357.3502698,0.6310664750635624,0.9791173934936523,1.3334036062267858,0.19873575866222382,0.2684527039527893
1629116357.3986259,0.6326819397509098,0.9859142303466797,1.3414570977547342,0.19404859840869904,0.22370947897434235
1629116357.442598,0.6343667842447758,0.9932661056518555,1.3495837533557316,0.20385363698005676,0.21963828802108765
1629116357.486565,0.6359010674059391,1.0001850128173828,1.3555602520236942,0.1968608945608139,0.16601218283176422
1629116357.5316904,0.6375046111643314,1.0075292587280273,1.3560928579645142,0.2031695693731308,0.014398548752069473
1629116357.5749094,0.6389748193323612,1.0143327713012695,1.3598490825536778,0.19334551692008972,0.10433793067932129
1629116357.6318536,0.6431118585169315,1.0339727401733398,1.366532982169851,0.20480994880199432,0.06820230931043625
1629116357.680271,0.6445633508265018,1.0410385131835938,1.3698642699798822,0.20037627220153809,0.09253621101379395
1629116357.7225616,0.6461131311953068,1.0486526489257812,1.3701413442847294,0.21001029014587402,0.007490853779017925
1629116357.7667024,0.6475244499742985,1.0555973052978516,1.3704857404088706,0.1968608945608139,0.009566545486450195
1629116357.810686,0.649243924766779,1.0640039443969727,1.367586775520582,0.2042934000492096,-0.06902501732110977
